%chk=H2O2_freq_polar_small_range.chk
#p RHF/6-31G NoSymm Freq(Raman) CPHF=RdFreq

H2O2 Frequency-Dependent Polarizability (Raman)

0 1
O  0.0  0.0  0.0
O  0.0  0.0  1.5
H  1.0  0.0  0.0
H  0.0  0.7  1.0

  40383.3321721168cm
  40405.2796352538cm
  40427.2270983908cm
  40449.1745615278cm
  40471.1220246649cm
  40493.0694878019cm
  40515.0169509389cm
  40536.9644140759cm
  40558.9118772129cm
  40580.8593403500cm
  40602.8068034870cm
  40624.7542666240cm
  40646.7017297610cm
  40668.6491928980cm
  40690.5966560350cm
  40712.5441191721cm
  40734.4915823091cm
  40756.4390454461cm
  40778.3865085831cm
  40800.3339717201cm
  40822.2814348571cm
  40844.2288979942cm
  40866.1763611312cm
  40888.1238242682cm
  40910.0712874052cm
  40932.0187505422cm
  40953.9662136793cm
  40975.9136768163cm
  40997.8611399533cm
  41019.8086030903cm
  41041.7560662273cm
  41063.7035293643cm
  41085.6509925014cm
  41107.5984556384cm
  41129.5459187754cm
  41151.4933819124cm
  41173.4408450494cm
  41195.3883081864cm
  41217.3357713235cm
  41239.2832344605cm
  41261.2306975975cm
  41283.1781607345cm
  41305.1256238715cm
  41327.0730870086cm
  41349.0205501456cm
  41370.9680132826cm
  41392.9154764196cm
  41414.8629395566cm
  41436.8104026936cm
  41458.7578658307cm
  41480.7053289677cm
  41502.6527921047cm
  41524.6002552417cm
  41546.5477183787cm
  41568.4951815157cm
  41590.4426446528cm
  41612.3901077898cm
  41634.3375709268cm
  41656.2850340638cm
  41678.2324972008cm
  41700.1799603379cm
  41722.1274234749cm
  41744.0748866119cm
  41766.0223497489cm
  41787.9698128859cm
  41809.9172760229cm
  41831.8647391600cm
  41853.8122022970cm
  41875.7596654340cm
  41897.7071285710cm
  41919.6545917080cm
  41941.6020548450cm
  41963.5495179821cm
  41985.4969811191cm
  42007.4444442561cm
  42029.3919073931cm
  42051.3393705301cm
  42073.2868336672cm
  42095.2342968042cm
  42117.1817599412cm
  42139.1292230782cm
  42161.0766862152cm
  42183.0241493522cm
  42204.9716124893cm
  42226.9190756263cm
  42248.8665387633cm
  42270.8140019003cm
  42292.7614650373cm
  42314.7089281743cm
  42336.6563913114cm
  42358.6038544484cm
  42380.5513175854cm
  42402.4987807224cm
  42424.4462438594cm
  42446.3937069965cm
  42468.3411701335cm
  42490.2886332705cm
  42512.2360964075cm
  42534.1835595445cm
