%chk=H2O2_freq_polar_1.chk
#p RHF/6-31G NoSymm Freq(Raman) CPHF=RdFreq

H2O2 Frequency-Dependent Polarizability (Raman)

0 1
O  0.0  0.0  0.0
O  0.0  0.0  1.5
H  1.0  0.0  0.0
H  0.0  0.7  1.0

  21947.4631370200cm
  22166.9377683902cm
  22386.4123997604cm
  22605.8870311306cm
  22825.3616625008cm
  23044.8362938710cm
  23264.3109252412cm
  23483.7855566114cm
  23703.2601879816cm
  23922.7348193518cm
  24142.2094507220cm
  24361.6840820922cm
  24581.1587134624cm
  24800.6333448326cm
  25020.1079762028cm
  25239.5826075730cm
  25459.0572389432cm
  25678.5318703134cm
  25898.0065016836cm
  26117.4811330538cm
  26336.9557644240cm
  26556.4303957942cm
  26775.9050271644cm
  26995.3796585346cm
  27214.8542899048cm
  27434.3289212750cm
  27653.8035526452cm
  27873.2781840154cm
  28092.7528153856cm
  28312.2274467558cm
  28531.7020781260cm
  28751.1767094962cm
  28970.6513408664cm
  29190.1259722366cm
  29409.6006036068cm
  29629.0752349770cm
  29848.5498663472cm
  30068.0244977174cm
  30287.4991290876cm
  30506.9737604578cm
  30726.4483918280cm
  30945.9230231982cm
  31165.3976545684cm
  31384.8722859386cm
  31604.3469173088cm
  31823.8215486790cm
  32043.2961800492cm
  32262.7708114194cm
  32482.2454427896cm
  32701.7200741598cm
  32921.1947055300cm
  33140.6693369002cm
  33360.1439682704cm
  33579.6185996406cm
  33799.0932310108cm
  34018.5678623810cm
  34238.0424937512cm
  34457.5171251214cm
  34676.9917564916cm
  34896.4663878618cm
  35115.9410192320cm
  35335.4156506022cm
  35554.8902819724cm
  35774.3649133426cm
  35993.8395447128cm
  36213.3141760830cm
  36432.7888074532cm
  36652.2634388234cm
  36871.7380701936cm
  37091.2127015638cm
  37310.6873329340cm
  37530.1619643042cm
  37749.6365956744cm
  37969.1112270446cm
  38188.5858584148cm
  38408.0604897850cm
  38627.5351211552cm
  38847.0097525254cm
  39066.4843838956cm
  39285.9590152658cm
  39505.4336466360cm
  39724.9082780062cm
  39944.3829093764cm
  40163.8575407466cm
  40383.3321721168cm
  40602.8068034870cm
  40822.2814348572cm
  41041.7560662274cm
  41261.2306975976cm
  41480.7053289678cm
  41700.1799603380cm
  41919.6545917082cm
  42139.1292230784cm
  42358.6038544486cm
  42578.0784858188cm
  42797.5531171890cm
  43017.0277485592cm
  43236.5023799294cm
  43455.9770112996cm
